Muscular excitations from emg 

1  :  0.4433176517486572 
2  :  0.19754448533058167 
3  :  0.23365555703639984 
4  :  0.2554389238357544 
5  :  0.34960025548934937 
6  :  0.025233794003725052 
7  :  0.16279736161231995 
8  :  0.2418215274810791 
9  :  0.015398123301565647 
10  :  0.03927230089902878 

1  :  0.32111972570419317 
2  :  0.17389005422592163 
3  :  0.34258168935775757 
4  :  0.12722522020339966 
5  :  0.34872686862945557 
6  :  0.02565179951488972 
7  :  0.15672001242637634 
8  :  0.21188451349735266 
9  :  0.10776391625404358 
10  :  0.041038960218429565 

1  :  0.2131663262844086 
2  :  0.12693631649017334 
3  :  0.399704247713089 
4  :  0.14330630004405975 
5  :  0.1668783277273178 
6  :  0.035679541528224945 
7  :  0.15805959701538086 
8  :  0.08276859670877457 
9  :  0.0646231323480606 
10  :  0.04132400080561637 

1  :  0.22030059993267057 
2  :  0.15970535576343534 
3  :  0.2698971033096313 
4  :  0.08546535670757294 
5  :  0.29405418038368225 
6  :  0.05092659592628479 
7  :  0.12833528220653534 
8  :  0.14087271690368652 
9  :  0.009050674736499786 
10  :  0.019183209165930748 

1  :  0.20444813370704654 
2  :  0.29440072178840637 
3  :  0.27302101254463196 
4  :  0.10927204787731172 
5  :  0.10944457352161409 
6  :  0.026895852759480476 
7  :  0.04183300584554672 
8  :  0.051097277551889426 
9  :  0.002156952628865838 
10  :  0.0015905564650893211 

1  :  0.20877143740653992 
2  :  0.1643953174352646 
3  :  0.3639124035835266 
4  :  0.1363444030284882 
5  :  0.23073513805866241 
6  :  0.020578661933541298 
7  :  0.073851615190506 
8  :  0.055914308875799186 
9  :  0.0015579736791551113 
10  :  0.015348793007433414 

1  :  0.12600272893905642 
2  :  0.20897074043750766 
3  :  0.2623642086982727 
4  :  0.10852656513452531 
5  :  0.1749323010444641 
6  :  0.018842078745365143 
7  :  0.03441263362765312 
8  :  0.2367510497570038 
9  :  0.010347140021622181 
10  :  0.01951550506055355 

1  :  0.20868220925331116 
2  :  0.15926188230514526 
3  :  0.22294728457927704 
4  :  0.1970895379781723 
5  :  0.21846137940883636 
6  :  0.012995180673897266 
7  :  0.07125823944807053 
8  :  0.06980345398187637 
9  :  0.007481406908482313 
10  :  0.024671873077750206 

1  :  0.3239361047744751 
2  :  0.14923608303070068 
3  :  0.2801038324832916 
4  :  0.17880435287952423 
5  :  0.14371010661125183 
6  :  0.017450742423534393 
7  :  0.03349275887012482 
8  :  0.08978937566280365 
9  :  0.00667366897687316 
10  :  0.005379547830671072 

1  :  0.23059082031250003 
2  :  0.05934077873826028 
3  :  0.1794991195201874 
4  :  0.09242943674325944 
5  :  0.14783409237861633 
6  :  0.03622174635529518 
7  :  0.09293246269226074 
8  :  0.035132311284542084 
9  :  0.007105354219675064 
10  :  0.0034901185426861056 

1  :  0.22210825979709625 
2  :  0.1588272899389267 
3  :  0.11567386239767077 
4  :  0.17440843582153323 
5  :  0.08891100436449051 
6  :  0.03587963432073593 
7  :  0.040911562740802765 
8  :  0.12028407305479051 
9  :  0.03179185837507248 
10  :  0.010416177101433277 

1  :  0.21141332387924197 
2  :  0.0460987314581871 
3  :  0.19578854739665985 
4  :  0.12761585414409637 
5  :  0.18883821368217468 
6  :  0.06509771198034286 
7  :  0.05696355551481247 
8  :  0.02623176760971546 
9  :  0.008263527415692806 
10  :  0.01277534943073988 

1  :  0.13636521995067596 
2  :  0.058292943984270096 
3  :  0.22510372102260595 
4  :  0.2380747646093369 
5  :  0.14706631004810333 
6  :  0.04547535628080368 
7  :  0.052838485687971115 
8  :  0.002643012907356024 
9  :  0.011227845214307308 
10  :  0.002772353356704116 

1  :  0.1502724587917328 
2  :  0.19307269155979156 
3  :  0.18761119246482852 
4  :  0.235958993434906 
5  :  0.09845889359712601 
6  :  0.03876749426126481 
7  :  0.06372059136629105 
8  :  0.0038711435627192263 
9  :  0.02235168218612671 
10  :  0.03128805756568909 

1  :  0.0942276120185852 
2  :  0.10642491281032562 
3  :  0.23585836589336395 
4  :  0.1807374358177185 
5  :  0.12659084796905515 
6  :  0.02704313583672047 
7  :  0.08520248532295227 
8  :  0.06378953158855437 
9  :  0.039233259856700904 
10  :  0.014022904448211195 

1  :  0.037341177463531494 
2  :  0.20260968804359436 
3  :  0.5485578775405884 
4  :  0.3157406151294708 
5  :  0.09630822390317917 
6  :  0.0933029055595398 
7  :  0.06254053115844727 
8  :  0.0025112028233706947 
9  :  0.012119718827307224 
10  :  0.0032645715400576596 

1  :  0.04270253702998161 
2  :  0.355651319026947 
3  :  0.6071675419807434 
4  :  0.15198443830013275 
5  :  0.13827715814113617 
6  :  0.09461822360754013 
7  :  0.10455592721700668 
8  :  0.0030638161115348335 
9  :  0.05169554054737091 
10  :  0.005962143652141095 

1  :  0.08406525105237961 
2  :  0.2916066646575928 
3  :  0.8239215612411499 
4  :  0.38460421562194824 
5  :  0.14724725484848022 
6  :  0.023454099893569946 
7  :  0.06591043621301651 
8  :  0.001 
9  :  0.03136759623885155 
10  :  0.005476810038089752 

1  :  0.06429314613342285 
2  :  0.3697760999202728 
3  :  0.8033465147018433 
4  :  0.10381456464529039 
5  :  0.050181504338979714 
6  :  0.027386896312236786 
7  :  0.09959490597248077 
8  :  0.07522074878215791 
9  :  0.0029804469086229797 
10  :  0.002480150666087866 

1  :  0.037070184946060174 
2  :  0.18807630240917206 
3  :  0.43952542543411255 
4  :  0.13480061292648315 
5  :  0.032592739909887314 
6  :  0.016049189493060112 
7  :  0.06605234742164612 
8  :  0.09456935524940491 
9  :  0.0035670492798089985 
10  :  0.0030033183284103875 

1  :  0.018564626574516296 
2  :  0.08064861595630644 
3  :  0.11106993257999422 
4  :  0.007215713150799275 
5  :  0.01234511286020279 
6  :  0.00402558920904994 
7  :  0.04248201847076416 
8  :  0.15656398236751556 
9  :  0.002720701042562723 
10  :  0.0035958630032837395 

1  :  0.08175786584615707 
2  :  0.023093901574611664 
3  :  0.14304614067077637 
4  :  0.0007161815301515162 
5  :  0.006107752677053213 
6  :  0.0013859305763617156 
7  :  0.08217627555131912 
8  :  0.052483897656202316 
9  :  0.0015486428746953607 
10  :  0.003536979667842388 

1  :  0.3948328495025635 
2  :  0.04784726351499558 
3  :  0.04618774354457855 
4  :  0.018010701984167102 
5  :  0.040708910673856735 
6  :  0.037672460079193115 
7  :  0.07274428009986879 
8  :  0.10900174826383591 
9  :  0.004392843227833509 
10  :  0.004091300070285797 

1  :  0.35678049921989446 
2  :  0.052586100995540626 
3  :  0.11361702531576157 
4  :  0.029700862243771546 
5  :  0.046451929956674576 
6  :  0.01875491626560688 
7  :  0.02498195506632328 
8  :  0.043261803686618805 
9  :  0.002432675799354911 
10  :  0.0021607077214866877 

1  :  0.16036227345466614 
2  :  0.04637603089213371 
3  :  0.12636660039424896 
4  :  0.05752815306186676 
5  :  0.004337058402597904 
6  :  0.057419195771217346 
7  :  0.011624428443610668 
8  :  0.008961133658885956 
9  :  0.003394328523427248 
10  :  0.0021295195911079645 

1  :  0.19921430945396423 
2  :  0.03831300511956215 
3  :  0.0966796800494194 
4  :  0.05176194757223129 
5  :  0.006913604214787483 
6  :  0.08129172772169113 
7  :  0.011867888271808624 
8  :  0.00633684266358614 
9  :  0.00329421809874475 
10  :  0.0030738310888409615 

1  :  0.2807935178279877 
2  :  0.06840259581804276 
3  :  0.10869180411100388 
4  :  0.13937391340732577 
5  :  0.01424285024404526 
6  :  0.10710807889699936 
7  :  0.01940719597041607 
8  :  0.011870298534631729 
9  :  0.003470166586339474 
10  :  0.008710725232958794 

1  :  0.4730378985404968 
2  :  0.11028169095516205 
3  :  0.19429638981819156 
4  :  0.25653010606765747 
5  :  0.02729017473757267 
6  :  0.03996815904974938 
7  :  0.014273279346525669 
8  :  0.03614211454987526 
9  :  0.0028674795757979155 
10  :  0.011071611195802689 

1  :  0.608433187007904 
2  :  0.1112409085035324 
3  :  0.11857122927904129 
4  :  0.19754518568515778 
5  :  0.015992315486073494 
6  :  0.017133988440036774 
7  :  0.018422668799757957 
8  :  0.012766729108989239 
9  :  0.00148388696834445 
10  :  0.006467879749834537 

1  :  0.34012007713317877 
2  :  0.045044057071208954 
3  :  0.04169188439846039 
4  :  0.059804510325193405 
5  :  0.005521705374121666 
6  :  0.011413647793233395 
7  :  0.01682877168059349 
8  :  0.0033030104823410515 
9  :  0.001479356549680233 
10  :  0.0031528116669505835 

1  :  0.2904261648654938 
2  :  0.03205524757504463 
3  :  0.12788213789463043 
4  :  0.046362005174160004 
5  :  0.055531904101371765 
6  :  0.0649033933877945 
7  :  0.01359825115650892 
8  :  0.024976838380098343 
9  :  0.002060367027297616 
10  :  0.0034553671721369032 

1  :  0.3987814784049988 
2  :  0.048070330172777176 
3  :  0.18046000599861145 
4  :  0.033142369240522385 
5  :  0.22249233722686768 
6  :  0.06744091957807542 
7  :  0.029947668313980103 
8  :  0.023657822981476787 
9  :  0.004686686675995588 
10  :  0.0038624738808721313 

1  :  0.12006162106990814 
2  :  0.056144364178180695 
3  :  0.14476262032985687 
4  :  0.04566979408264161 
5  :  0.14442259073257446 
6  :  0.011190054938197136 
7  :  0.029138481244444847 
8  :  0.042617354542016976 
9  :  0.0034116215538233514 
10  :  0.011496336199343204 

1  :  0.09780340641736984 
2  :  0.20131623744964597 
3  :  0.29072591662406927 
4  :  0.12022500485181807 
5  :  0.10772324353456499 
6  :  0.01336322259157896 
7  :  0.04474363476037979 
8  :  0.108649343252182 
9  :  0.0022045299410820007 
10  :  0.013524175621569157 

1  :  0.12343828380107881 
2  :  0.23629972338676453 
3  :  0.28705641627311707 
4  :  0.13464224338531494 
5  :  0.18950749933719635 
6  :  0.013516472652554512 
7  :  0.05632775649428368 
8  :  0.05290883406996727 
9  :  0.0033602318726480007 
10  :  0.011541559360921381 

1  :  0.07512208819389343 
2  :  0.10092437267303467 
3  :  0.11479818820953369 
4  :  0.060126326978206635 
5  :  0.23992760479450226 
6  :  0.019706692546606064 
7  :  0.0358961783349514 
8  :  0.04814105108380318 
9  :  0.004851388279348612 
10  :  0.014649462886154652 

1  :  0.13663676381111145 
2  :  0.11614861339330675 
3  :  0.22190110385417938 
4  :  0.057327017188072205 
5  :  0.11414036899805069 
6  :  0.03191849961876869 
7  :  0.04480776935815811 
8  :  0.07069948315620422 
9  :  0.0031478088349103928 
10  :  0.016122138127684593 

1  :  0.15509365499019623 
2  :  0.18232277035713199 
3  :  0.26684045791625977 
4  :  0.18693818151950836 
5  :  0.0987459272146225 
6  :  0.025750093162059784 
7  :  0.06754278391599655 
8  :  0.12410160899162294 
9  :  0.002918679965659976 
10  :  0.013361779972910881 

1  :  0.14128343760967255 
2  :  0.14451709389686584 
3  :  0.22329802811145782 
4  :  0.1552884429693222 
5  :  0.1271417886018753 
6  :  0.009080526418983936 
7  :  0.05769984424114227 
8  :  0.16391704976558685 
9  :  0.002404492814093828 
10  :  0.005597229115664959 

1  :  0.1269177496433258 
2  :  0.24078749120235443 
3  :  0.27040526270866394 
4  :  0.12002409249544142 
5  :  0.13230490684509277 
6  :  0.0028950879350304604 
7  :  0.07284294068813324 
8  :  0.22862623631954193 
9  :  0.0019217398948967452 
10  :  0.003986353985965252 

1  :  0.21942056715488434 
2  :  0.12466569244861603 
3  :  0.2240990847349167 
4  :  0.11851482838392258 
5  :  0.07878916710615158 
6  :  0.010575482621788977 
7  :  0.09371498227119446 
8  :  0.14583685994148257 
9  :  0.0018334136111661792 
10  :  0.003510024631395936 

1  :  0.2443675845861435 
2  :  0.14774055778980255 
3  :  0.30360203981399536 
4  :  0.1571988612413406 
5  :  0.14069506525993347 
6  :  0.016512025147676464 
7  :  0.09733763337135315 
8  :  0.11879020184278488 
9  :  0.004260549321770668 
10  :  0.006334763951599599 

1  :  0.21096354722976687 
2  :  0.1456218808889389 
3  :  0.3459200263023376 
4  :  0.13815486431121823 
5  :  0.347072571516037 
6  :  0.013787541538476942 
7  :  0.15316498279571533 
8  :  0.1400097906589508 
9  :  0.0036501497961580753 
10  :  0.003364162752404809 

1  :  0.29926663637161255 
2  :  0.2117682695388794 
3  :  0.38386932015419006 
4  :  0.1634780466556549 
5  :  0.3172933757305145 
6  :  0.013698766939342024 
7  :  0.12927210330963135 
8  :  0.10352138429880142 
9  :  0.002948292763903737 
10  :  0.0029510953463613987 

1  :  0.2854178845882416 
2  :  0.23127080500125885 
3  :  0.5391510725021362 
4  :  0.1849970668554306 
5  :  0.3030867278575897 
6  :  0.015295448713004589 
7  :  0.08293512463569641 
8  :  0.11625634133815765 
9  :  0.002428081119433045 
10  :  0.012513874098658562 

1  :  0.31729114055633545 
2  :  0.21840143203735352 
3  :  0.43860176205635076 
4  :  0.40954667329788214 
5  :  0.427596777677536 
6  :  0.02454126998782158 
7  :  0.11064469069242477 
8  :  0.13838401436805725 
9  :  0.0039274245500564575 
10  :  0.030346855521202087 

1  :  0.3999423682689667 
2  :  0.158504456281662 
3  :  0.4563694894313812 
4  :  0.5735967755317688 
5  :  0.17870229482650757 
6  :  0.02443578653037548 
7  :  0.12909464538097382 
8  :  0.2643839418888092 
9  :  0.003508330322802067 
10  :  0.03680632635951042 

1  :  0.3668357729911804 
2  :  0.17833414673805234 
3  :  0.415712833404541 
4  :  0.4568241536617279 
5  :  0.2541387379169464 
6  :  0.030787797644734376 
7  :  0.09161321818828583 
8  :  0.32275861501693726 
9  :  0.00660630827769637 
10  :  0.06189459562301635 

1  :  0.31146991252899175 
2  :  0.32146355509758 
3  :  0.42484843730926514 
4  :  0.6108071208000183 
5  :  0.47252413630485535 
6  :  0.02861404418945312 
7  :  0.17966495454311368 
8  :  0.24667896330356595 
9  :  0.00797305814921856 
10  :  0.06152176856994629 

1  :  0.27840280532836914 
2  :  0.18073537945747375 
3  :  0.4797484874725342 
4  :  0.5332282781600952 
5  :  0.26692453026771545 
6  :  0.020556800067424774 
7  :  0.33953601121902466 
8  :  0.20122884213924408 
9  :  0.005874990485608578 
10  :  0.057137809693813324 

